\cite{Aleksandrova}
Energy (MeV) : $N(E_n) / squareroot(E_n)$
2       97924
2.25    80742
2.5     69307
2.75    59491
3       48661
3.25    42120
3.5     32542
3.75    28408
4       24983
4.25    19021
4.5 	14404
4.75	10813
5.25	8778
5.5     6564
5.75    5077
6.25	3457
6.5     2798
6.75    2204
7.25    1530
7.75    1159
8.25    804
8.5     593
9.25    349
9.75    196
10.25   182
11.5    89.31
12.75   18.9101
13.75   18.37
